Index        TIME          {V(A)+1.0}
0       0.00000000e+00   6.00000000e+00   
1       5.00000000e-11   5.76190922e+00   
2       6.06170973e-11   5.71188368e+00   
3       7.12341946e-11   5.66238367e+00   
4       8.18512919e-11   5.61340369e+00   
5       9.24683892e-11   5.56493825e+00   
6       1.03085487e-10   5.51698196e+00   
7       1.13702584e-10   5.46952947e+00   
8       1.34936778e-10   5.37659777e+00   
9       1.56170973e-10   5.28559832e+00   
10      1.77405168e-10   5.19649095e+00   
11      2.19873557e-10   5.02553622e+00   
12      2.62341946e-10   4.86154573e+00   
13      3.47278725e-10   4.55924099e+00   
14      4.32215503e-10   4.28060240e+00   
15      4.70234144e-10   4.16044870e+00   
16      4.90069047e-10   4.09898189e+00   
17      5.09903950e-10   4.03871060e+00   
18      5.29738853e-10   3.97961153e+00   
19      5.50544855e-10   3.91888255e+00   
20      5.71350858e-10   3.85939133e+00   
21      5.92156861e-10   3.80111264e+00   
22      6.12962863e-10   3.74402176e+00   
23      6.33768866e-10   3.68809449e+00   
24      6.54574869e-10   3.63330710e+00   
25      6.75380872e-10   3.57963637e+00   
26      6.96186874e-10   3.52705953e+00   
27      7.16992877e-10   3.47555428e+00   
28      7.37798880e-10   3.42509879e+00   
29      7.58604883e-10   3.37567167e+00   
30      7.79410885e-10   3.32725195e+00   
31      7.96630444e-10   3.28785695e+00   
32      8.06456912e-10   3.26559466e+00   
33      8.12906048e-10   3.25107749e+00   
34      8.19355185e-10   3.23665334e+00   
35      8.25804321e-10   3.22232161e+00   
36      8.32253458e-10   3.20808171e+00   
37      8.37082396e-10   3.19747051e+00   
38      8.41911335e-10   3.18691030e+00   
39      8.46740273e-10   3.17640083e+00   
40      8.51569211e-10   3.16594188e+00   
41      8.56398150e-10   3.15553318e+00   
42      8.61227088e-10   3.14517450e+00   
43      8.66056026e-10   3.13486561e+00   
44      8.70884964e-10   3.12460625e+00   
45      8.75713903e-10   3.11439620e+00   
46      8.80542841e-10   3.10423521e+00   
47      8.85371779e-10   3.09412305e+00   
48      8.90200718e-10   3.08405948e+00   
49      8.99858594e-10   3.06412488e+00   
50      9.09516471e-10   3.04438095e+00   
51      9.19174348e-10   3.02482589e+00   
52      9.28832224e-10   3.00545787e+00   
53      9.38490101e-10   2.98627512e+00   
54      9.48147977e-10   2.96727585e+00   
55      9.57805854e-10   2.94845832e+00   
56      9.77121607e-10   2.91153641e+00   
57      9.96437361e-10   2.87531414e+00   
58      1.01575311e-09   2.83977827e+00   
59      1.03506887e-09   2.80491579e+00   
60      1.05438462e-09   2.77071396e+00   
61      1.07370037e-09   2.73716024e+00   
62      1.09301613e-09   2.70424236e+00   
63      1.11233188e-09   2.67194828e+00   
64      1.13027260e-09   2.64248178e+00   
65      1.14195033e-09   2.62352321e+00   
66      1.15362807e-09   2.60478347e+00   
67      1.16530581e-09   2.58626003e+00   
68      1.17698354e-09   2.56795040e+00   
69      1.18866128e-09   2.54985211e+00   
70      1.20033902e-09   2.53196273e+00   
71      1.21201676e-09   2.51427983e+00   
72      1.22369449e-09   2.49680104e+00   
73      1.23537223e-09   2.47952400e+00   
74      1.24704997e-09   2.46244638e+00   
75      1.25872770e-09   2.44556587e+00   
76      1.27040544e-09   2.42888022e+00   
77      1.27584546e-09   2.42114933e+00   
78      1.28128549e-09   2.41346027e+00   
79      1.28560353e-09   2.40738329e+00   
80      1.28992157e-09   2.40133244e+00   
81      1.29423961e-09   2.39530760e+00   
82      1.29855765e-09   2.38930867e+00   
83      1.30719373e-09   2.37741353e+00   
84      1.31582981e-09   2.36562025e+00   
85      1.32446589e-09   2.35392794e+00   
86      1.33310197e-09   2.34233574e+00   
87      1.34173804e-09   2.33084280e+00   
88      1.35037412e-09   2.31944826e+00   
89      1.35901020e-09   2.30815129e+00   
90      1.36764628e-09   2.29695104e+00   
91      1.38491844e-09   2.27493088e+00   
92      1.40219060e-09   2.25328462e+00   
93      1.41946276e-09   2.23200592e+00   
94      1.43673492e-09   2.21108852e+00   
95      1.45400708e-09   2.19052627e+00   
96      1.47127924e-09   2.17031314e+00   
97      1.48626859e-09   2.15303054e+00   
98      1.50125795e-09   2.13600315e+00   
99      1.51624730e-09   2.11922720e+00   
100     1.53123666e-09   2.10269897e+00   
101     1.54622601e-09   2.08641480e+00   
102     1.56121536e-09   2.07037110e+00   
103     1.57620472e-09   2.05456431e+00   
104     1.59119407e-09   2.03899093e+00   
105     1.60618343e-09   2.02364752e+00   
106     1.62117278e-09   2.00853069e+00   
107     1.63616214e-09   1.99363709e+00   
108     1.65115149e-09   1.97896342e+00   
109     1.66614085e-09   1.96450644e+00   
110     1.68113020e-09   1.95026294e+00   
111     1.69611956e-09   1.93622979e+00   
112     1.71110891e-09   1.92240386e+00   
113     1.72609826e-09   1.90878211e+00   
114     1.74108762e-09   1.89536152e+00   
115     1.75607697e-09   1.88213911e+00   
116     1.77106633e-09   1.86911197e+00   
117     1.78605568e-09   1.85627720e+00   
118     1.80104504e-09   1.84363197e+00   
119     1.81603439e-09   1.83117348e+00   
120     1.83102375e-09   1.81889898e+00   
121     1.84601310e-09   1.80680573e+00   
122     1.86100245e-09   1.79489108e+00   
123     1.87599181e-09   1.78315237e+00   
124     1.89098116e-09   1.77158702e+00   
125     1.90597052e-09   1.76019247e+00   
126     1.92095987e-09   1.74896618e+00   
127     1.93594923e-09   1.73790568e+00   
128     1.95093858e-09   1.72700852e+00   
129     1.96592794e-09   1.71627228e+00   
130     1.98091729e-09   1.70569459e+00   
131     1.99590665e-09   1.69527311e+00   
132     2.02588535e-09   1.67503680e+00   
133     2.05586406e-09   1.65538948e+00   
134     2.08584277e-09   1.63631400e+00   
135     2.11582148e-09   1.61779372e+00   
136     2.14580019e-09   1.59981249e+00   
137     2.17577890e-09   1.58235462e+00   
138     2.20575761e-09   1.56540486e+00   
139     2.26571503e-09   1.53342287e+00   
140     2.32567244e-09   1.50324994e+00   
141     2.38562986e-09   1.47478373e+00   
142     2.44558728e-09   1.44792771e+00   
143     2.56550212e-09   1.39996678e+00   
144     2.68541695e-09   1.35714117e+00   
145     2.80533179e-09   1.31890103e+00   
146     2.92524662e-09   1.28475537e+00   
147     3.02239158e-09   1.25954264e+00   
148     3.11953654e-09   1.23656230e+00   
149     3.13801492e-09   1.23227041e+00   
150     3.14263451e-09   1.23120237e+00   
151     3.14640657e-09   1.23033355e+00   
152     3.14923264e-09   1.22968446e+00   
153     3.15205870e-09   1.22903720e+00   
154     3.15488477e-09   1.22839177e+00   
155     3.15771084e-09   1.22774815e+00   
156     3.16336298e-09   1.22646815e+00   
157     3.16901511e-09   1.22519534e+00   
158     3.17466725e-09   1.22392968e+00   
159     3.18031939e-09   1.22267114e+00   
160     3.18597152e-09   1.22141968e+00   
161     3.19162366e-09   1.22017524e+00   
162     3.19727580e-09   1.21893780e+00   
163     3.20292793e-09   1.21770732e+00   
164     3.20858007e-09   1.21648375e+00   
165     3.21423220e-09   1.21526705e+00   
166     3.21988434e-09   1.21405720e+00   
167     3.22553648e-09   1.21285414e+00   
168     3.23118861e-09   1.21165785e+00   
169     3.23684075e-09   1.21046828e+00   
170     3.24249289e-09   1.20928539e+00   
171     3.24814502e-09   1.20810916e+00   
172     3.25098631e-09   1.20751955e+00   
173     3.25339410e-09   1.20702109e+00   
174     3.25820970e-09   1.20602896e+00   
175     3.26302529e-09   1.20504159e+00   
176     3.27265647e-09   1.20308567e+00   
177     3.28228766e-09   1.20114841e+00   
178     3.30155003e-09   1.19734712e+00   
179     3.31540194e-09   1.19465089e+00   
180     3.32925385e-09   1.19199150e+00   
181     3.34310575e-09   1.18936844e+00   
182     3.37080957e-09   1.18426374e+00   
183     3.39851339e-09   1.17929664e+00   
184     3.42621720e-09   1.17446344e+00   
185     3.45392102e-09   1.16976052e+00   
186     3.48162483e-09   1.16518438e+00   
187     3.50932865e-09   1.16073160e+00   
188     3.53703246e-09   1.15639884e+00   
189     3.59244010e-09   1.14818826e+00   
190     3.64784773e-09   1.14040871e+00   
191     3.70325536e-09   1.13303756e+00   
192     3.75866299e-09   1.12605339e+00   
193     3.81407062e-09   1.11943587e+00   
194     3.83217312e-09   1.11731227e+00   
195     3.84186949e-09   1.11618572e+00   
196     3.85156586e-09   1.11506998e+00   
197     3.85904316e-09   1.11421597e+00   
198     3.86652047e-09   1.11336830e+00   
199     3.87399777e-09   1.11252692e+00   
200     3.88147507e-09   1.11169178e+00   
201     3.88895237e-09   1.11086284e+00   
202     3.89642967e-09   1.11004006e+00   
203     3.90390698e-09   1.10922338e+00   
204     3.91138428e-09   1.10841276e+00   
205     3.92633888e-09   1.10681541e+00   
206     3.94129349e-09   1.10524160e+00   
207     3.95624809e-09   1.10369098e+00   
208     3.97120270e-09   1.10216320e+00   
209     3.98615730e-09   1.10065793e+00   
210     4.00111190e-09   1.09917484e+00   
211     4.01606651e-09   1.09771360e+00   
212     4.03102111e-09   1.09627390e+00   
213     4.04597572e-09   1.09485540e+00   
214     4.07588493e-09   1.09210080e+00   
215     4.10579414e-09   1.08942619e+00   
216     4.13570334e-09   1.08682925e+00   
217     4.19552176e-09   1.08192852e+00   
218     4.25534018e-09   1.07730439e+00   
219     4.31515860e-09   1.07294125e+00   
220     4.36266932e-09   1.06963301e+00   
221     4.41018004e-09   1.06647481e+00   
222     4.45769077e-09   1.06345985e+00   
223     4.50520149e-09   1.06058163e+00   
224     4.60022294e-09   1.05532471e+00   
225     4.69524439e-09   1.05052395e+00   
226     4.79026583e-09   1.04613978e+00   
227     4.88528728e-09   1.04213604e+00   
228     4.98030873e-09   1.03847972e+00   
229     5.07533018e-09   1.03514067e+00   
230     5.17035162e-09   1.03209137e+00   
231     5.26537307e-09   1.02930667e+00   
232     5.36039452e-09   1.02676360e+00   
233     5.45541597e-09   1.02444121e+00   
234     5.55043741e-09   1.02232035e+00   
235     5.64545886e-09   1.02038352e+00   
236     5.74048031e-09   1.01861476e+00   
237     5.83550176e-09   1.01699948e+00   
238     5.93052321e-09   1.01552436e+00   
239     6.02554465e-09   1.01417725e+00   
240     6.07747728e-09   1.01347735e+00   
241     6.12134514e-09   1.01291098e+00   
242     6.16521300e-09   1.01236842e+00   
243     6.20908086e-09   1.01184866e+00   
244     6.24667256e-09   1.01141939e+00   
245     6.28426426e-09   1.01100568e+00   
246     6.32185596e-09   1.01060695e+00   
247     6.35944766e-09   1.01022267e+00   
248     6.39703936e-09   1.00985232e+00   
249     6.43463106e-09   1.00949538e+00   
250     6.46674416e-09   1.00919994e+00   
251     6.48449967e-09   1.00903945e+00   
252     6.50225518e-09   1.00888175e+00   
253     6.50473697e-09   1.00885976e+00   
254     6.50721876e-09   1.00883783e+00   
255     6.50970056e-09   1.00881595e+00   
256     6.51466415e-09   1.00877241e+00   
257     6.51962774e-09   1.00872908e+00   
258     6.52459133e-09   1.00868597e+00   
259     6.52955492e-09   1.00864307e+00   
260     6.53948210e-09   1.00855812e+00   
261     6.54940928e-09   1.00847399e+00   
262     6.55933645e-09   1.00839070e+00   
263     6.56926363e-09   1.00830822e+00   
264     6.57919081e-09   1.00822656e+00   
265     6.58911799e-09   1.00814570e+00   
266     6.59904517e-09   1.00806563e+00   
267     6.60897235e-09   1.00798635e+00   
268     6.62882671e-09   1.00783088e+00   
269     6.64868106e-09   1.00767843e+00   
270     6.66853542e-09   1.00752895e+00   
271     6.68838978e-09   1.00738238e+00   
272     6.70355038e-09   1.00727213e+00   
273     6.71593130e-09   1.00718320e+00   
274     6.72608512e-09   1.00711100e+00   
275     6.73623894e-09   1.00703952e+00   
276     6.74639276e-09   1.00696877e+00   
277     6.75654658e-09   1.00689872e+00   
278     6.76670041e-09   1.00682938e+00   
279     6.77685423e-09   1.00676073e+00   
280     6.79716187e-09   1.00662617e+00   
281     6.81746951e-09   1.00649429e+00   
282     6.83777715e-09   1.00636503e+00   
283     6.85808480e-09   1.00623835e+00   
284     6.87839244e-09   1.00611419e+00   
285     6.89870008e-09   1.00599250e+00   
286     6.93931537e-09   1.00575862e+00   
287     6.97993065e-09   1.00553386e+00   
288     7.02054593e-09   1.00531788e+00   
289     7.06116122e-09   1.00511033e+00   
290     7.08836780e-09   1.00497498e+00   
291     7.11557439e-09   1.00484321e+00   
292     7.14278097e-09   1.00471494e+00   
293     7.19719414e-09   1.00447163e+00   
294     7.25160730e-09   1.00424087e+00   
295     7.36043364e-09   1.00382466e+00   
296     7.46925997e-09   1.00344929e+00   
297     7.57808630e-09   1.00311077e+00   
298     7.68691264e-09   1.00280547e+00   
299     7.79573897e-09   1.00253013e+00   
300     7.90456530e-09   1.00228181e+00   
301     8.01339164e-09   1.00205787e+00   
302     8.12221797e-09   1.00185590e+00   
303     8.23104430e-09   1.00167376e+00   
304     8.33987064e-09   1.00150949e+00   
305     8.44869697e-09   1.00136134e+00   
306     8.55752330e-09   1.00122774e+00   
307     8.66634964e-09   1.00110724e+00   
308     8.77517597e-09   1.00099857e+00   
309     8.88400230e-09   1.00090057e+00   
310     8.99282864e-09   1.00081219e+00   
311     9.10165497e-09   1.00073248e+00   
312     9.21048130e-09   1.00066059e+00   
313     9.31930764e-09   1.00059576e+00   
314     9.42813397e-09   1.00053729e+00   
315     9.53696030e-09   1.00048456e+00   
316     9.64578664e-09   1.00043700e+00   
317     9.75461297e-09   1.00039411e+00   
318     9.86343930e-09   1.00035543e+00   
319     9.97226564e-09   1.00032055e+00   
320     1.00000000e-08   1.00031190e+00   
321     1.00005000e-08   1.00032424e+00   
322     1.00008963e-08   1.00034186e+00   
323     1.00012926e-08   1.00036733e+00   
324     1.00016889e-08   1.00040064e+00   
325     1.00020853e-08   1.00044178e+00   
326     1.00024816e-08   1.00049076e+00   
327     1.00028779e-08   1.00054757e+00   
328     1.00032742e-08   1.00061221e+00   
329     1.00036705e-08   1.00068467e+00   
330     1.00040668e-08   1.00076496e+00   
331     1.00044632e-08   1.00085306e+00   
332     1.00048595e-08   1.00094897e+00   
333     1.00056521e-08   1.00117204e+00   
334     1.00064447e-08   1.00142632e+00   
335     1.00072374e-08   1.00171179e+00   
336     1.00080300e-08   1.00202842e+00   
337     1.00088226e-08   1.00237618e+00   
338     1.00096153e-08   1.00275506e+00   
339     1.00104079e-08   1.00316503e+00   
340     1.00112005e-08   1.00360605e+00   
341     1.00127858e-08   1.00461217e+00   
342     1.00143711e-08   1.00574214e+00   
343     1.00159563e-08   1.00699577e+00   
344     1.00175416e-08   1.00837288e+00   
345     1.00191268e-08   1.00987325e+00   
346     1.00207121e-08   1.01149670e+00   
347     1.00222974e-08   1.01324304e+00   
348     1.00254679e-08   1.01722568e+00   
349     1.00286384e-08   1.02169675e+00   
350     1.00318089e-08   1.02665471e+00   
351     1.00349795e-08   1.03209801e+00   
352     1.00381500e-08   1.03802512e+00   
353     1.00413205e-08   1.04443451e+00   
354     1.00444911e-08   1.05132466e+00   
355     1.00476616e-08   1.05869404e+00   
356     1.00540026e-08   1.07533769e+00   
357     1.00603437e-08   1.09387420e+00   
358     1.00666847e-08   1.11429166e+00   
359     1.00730258e-08   1.13657821e+00   
360     1.00793668e-08   1.16072208e+00   
361     1.00857079e-08   1.18671156e+00   
362     1.00920490e-08   1.21453502e+00   
363     1.01000000e-08   1.25228363e+00   
364     1.01063411e-08   1.28219889e+00   
365     1.01126821e-08   1.31192565e+00   
366     1.01190232e-08   1.34146510e+00   
367     1.01253642e-08   1.37081843e+00   
368     1.01380463e-08   1.42878988e+00   
369     1.01507284e-08   1.48603536e+00   
370     1.01634105e-08   1.54256395e+00   
371     1.01760926e-08   1.59838463e+00   
372     1.01887747e-08   1.65350626e+00   
373     1.02014568e-08   1.70793761e+00   
374     1.02141390e-08   1.76168731e+00   
375     1.02268211e-08   1.81476391e+00   
376     1.02395032e-08   1.86717582e+00   
377     1.02521853e-08   1.91893139e+00   
378     1.02648674e-08   1.97003881e+00   
379     1.02775495e-08   2.02050622e+00   
380     1.02902316e-08   2.07034163e+00   
381     1.03029137e-08   2.11955294e+00   
382     1.03155958e-08   2.16814798e+00   
383     1.03282779e-08   2.21613447e+00   
384     1.03409600e-08   2.26352002e+00   
385     1.03536421e-08   2.31031217e+00   
386     1.03663242e-08   2.35651833e+00   
387     1.03916884e-08   2.44664472e+00   
388     1.04170526e-08   2.53454172e+00   
389     1.04424169e-08   2.62026448e+00   
390     1.04677811e-08   2.70386678e+00   
391     1.04931453e-08   2.78540108e+00   
392     1.05185095e-08   2.86491851e+00   
393     1.05293062e-08   2.89840480e+00   
394     1.05382723e-08   2.92596655e+00   
395     1.05472385e-08   2.95328337e+00   
396     1.05562046e-08   2.98035743e+00   
397     1.05647008e-08   3.00579624e+00   
398     1.05731970e-08   3.03102073e+00   
399     1.05816932e-08   3.05603272e+00   
400     1.05901894e-08   3.08083399e+00   
401     1.05986855e-08   3.10542632e+00   
402     1.06071817e-08   3.12981147e+00   
403     1.06156779e-08   3.15399118e+00   
404     1.06241741e-08   3.17796719e+00   
405     1.06326703e-08   3.20174120e+00   
406     1.06411665e-08   3.22531494e+00   
407     1.06496627e-08   3.24869007e+00   
408     1.06581035e-08   3.27171849e+00   
409     1.06599526e-08   3.27675413e+00   
410     1.06618018e-08   3.28178048e+00   
411     1.06636510e-08   3.28679755e+00   
412     1.06673493e-08   3.29679471e+00   
413     1.06710477e-08   3.30675504e+00   
414     1.06747460e-08   3.31667867e+00   
415     1.06821427e-08   3.33638020e+00   
416     1.06895394e-08   3.35593707e+00   
417     1.07043328e-08   3.39448062e+00   
418     1.07191262e-08   3.43246229e+00   
419     1.07487129e-08   3.50624268e+00   
420     1.07782997e-08   3.57790286e+00   
421     1.08078864e-08   3.64750375e+00   
422     1.08152831e-08   3.66477621e+00   
423     1.08171323e-08   3.66908636e+00   
424     1.08185796e-08   3.67245486e+00   
425     1.08196246e-08   3.67488467e+00   
426     1.08206697e-08   3.67731195e+00   
427     1.08217147e-08   3.67973669e+00   
428     1.08227598e-08   3.68215890e+00   
429     1.08248499e-08   3.68699322e+00   
430     1.08290301e-08   3.69662162e+00   
431     1.08332104e-08   3.70620994e+00   
432     1.08373906e-08   3.71575834e+00   
433     1.08415708e-08   3.72526699e+00   
434     1.08457510e-08   3.73473607e+00   
435     1.08499313e-08   3.74416572e+00   
436     1.08541115e-08   3.75355612e+00   
437     1.08582917e-08   3.76290744e+00   
438     1.08624719e-08   3.77221982e+00   
439     1.08666522e-08   3.78149344e+00   
440     1.08708324e-08   3.79072845e+00   
441     1.08750126e-08   3.79992503e+00   
442     1.08791928e-08   3.80908331e+00   
443     1.08833731e-08   3.81820348e+00   
444     1.08875533e-08   3.82728568e+00   
445     1.08917335e-08   3.83633007e+00   
446     1.08931841e-08   3.83946408e+00   
447     1.08938455e-08   3.84089210e+00   
448     1.08944004e-08   3.84208939e+00   
449     1.08955101e-08   3.84448132e+00   
450     1.08977295e-08   3.84925459e+00   
451     1.08999489e-08   3.85401729e+00   
452     1.09043877e-08   3.86350060e+00   
453     1.09088266e-08   3.87294200e+00   
454     1.09132654e-08   3.88234168e+00   
455     1.09177042e-08   3.89169982e+00   
456     1.09221430e-08   3.90101660e+00   
457     1.09265819e-08   3.91029221e+00   
458     1.09310207e-08   3.91952684e+00   
459     1.09354595e-08   3.92872065e+00   
460     1.09398984e-08   3.93787384e+00   
461     1.09443372e-08   3.94698658e+00   
462     1.09487760e-08   3.95605905e+00   
463     1.09532148e-08   3.96509144e+00   
