Index        TIME            I(IIN)            V(A)       N(YNEURON!NEURON1_V1) N(YNEURON!NEURON1_N1) N(YNEURON!NEURON1_M1) N(YNEURON!NEURON1_H1) N(YNEURON!NEURON1_V10) N(YNEURON!NEURON1_V50) N(YNEURON!NEURON1_V90)
0       0.00000000e+00   0.00000000e+00   -6.00332546e-02  -6.00332546e-02  2.35766205e-01   2.66778955e-02   7.71286980e-01   -6.00332546e-02  -6.00332546e-02  -6.00332546e-02  
1       1.00000000e-10   0.00000000e+00   -6.00332546e-02  -6.00332546e-02  2.35766205e-01   2.66778955e-02   7.71286980e-01   -6.00332546e-02  -6.00332546e-02  -6.00332546e-02  
2       3.00000000e-10   0.00000000e+00   -6.00332546e-02  -6.00332546e-02  2.35766205e-01   2.66778955e-02   7.71286980e-01   -6.00332546e-02  -6.00332546e-02  -6.00332546e-02  
3       7.00000000e-10   0.00000000e+00   -6.00332546e-02  -6.00332546e-02  2.35766205e-01   2.66778955e-02   7.71286980e-01   -6.00332546e-02  -6.00332546e-02  -6.00332546e-02  
4       1.50000000e-09   0.00000000e+00   -6.00332546e-02  -6.00332546e-02  2.35766205e-01   2.66778955e-02   7.71286980e-01   -6.00332546e-02  -6.00332546e-02  -6.00332546e-02  
5       3.10000000e-09   0.00000000e+00   -6.00332546e-02  -6.00332546e-02  2.35766205e-01   2.66778955e-02   7.71286980e-01   -6.00332546e-02  -6.00332546e-02  -6.00332546e-02  
6       6.30000000e-09   0.00000000e+00   -6.00332546e-02  -6.00332546e-02  2.35766205e-01   2.66778955e-02   7.71286980e-01   -6.00332546e-02  -6.00332546e-02  -6.00332546e-02  
7       1.27000000e-08   0.00000000e+00   -6.00332546e-02  -6.00332546e-02  2.35766205e-01   2.66778955e-02   7.71286980e-01   -6.00332546e-02  -6.00332546e-02  -6.00332546e-02  
8       2.55000000e-08   0.00000000e+00   -6.00332546e-02  -6.00332546e-02  2.35766205e-01   2.66778955e-02   7.71286980e-01   -6.00332546e-02  -6.00332546e-02  -6.00332546e-02  
9       5.11000000e-08   0.00000000e+00   -6.00332546e-02  -6.00332546e-02  2.35766205e-01   2.66778955e-02   7.71286980e-01   -6.00332546e-02  -6.00332546e-02  -6.00332546e-02  
10      1.02300000e-07   0.00000000e+00   -6.00332546e-02  -6.00332546e-02  2.35766205e-01   2.66778955e-02   7.71286980e-01   -6.00332546e-02  -6.00332546e-02  -6.00332546e-02  
11      2.04700000e-07   0.00000000e+00   -6.00332546e-02  -6.00332546e-02  2.35766205e-01   2.66778955e-02   7.71286980e-01   -6.00332546e-02  -6.00332546e-02  -6.00332546e-02  
12      4.09500000e-07   0.00000000e+00   -6.00332546e-02  -6.00332546e-02  2.35766205e-01   2.66778955e-02   7.71286980e-01   -6.00332546e-02  -6.00332546e-02  -6.00332546e-02  
13      8.19100000e-07   0.00000000e+00   -6.00332546e-02  -6.00332546e-02  2.35766205e-01   2.66778955e-02   7.71286980e-01   -6.00332546e-02  -6.00332546e-02  -6.00332546e-02  
14      1.63830000e-06   0.00000000e+00   -6.00332546e-02  -6.00332546e-02  2.35766205e-01   2.66778955e-02   7.71286980e-01   -6.00332546e-02  -6.00332546e-02  -6.00332546e-02  
15      3.27670000e-06   0.00000000e+00   -6.00332546e-02  -6.00332546e-02  2.35766205e-01   2.66778955e-02   7.71286980e-01   -6.00332546e-02  -6.00332546e-02  -6.00332546e-02  
16      6.55350000e-06   0.00000000e+00   -6.00332546e-02  -6.00332546e-02  2.35766205e-01   2.66778955e-02   7.71286980e-01   -6.00332546e-02  -6.00332546e-02  -6.00332546e-02  
17      1.31071000e-05   0.00000000e+00   -6.00332546e-02  -6.00332546e-02  2.35766205e-01   2.66778955e-02   7.71286980e-01   -6.00332546e-02  -6.00332546e-02  -6.00332546e-02  
18      2.62143000e-05   0.00000000e+00   -6.00332546e-02  -6.00332546e-02  2.35766205e-01   2.66778955e-02   7.71286980e-01   -6.00332546e-02  -6.00332546e-02  -6.00332546e-02  
19      5.24287000e-05   0.00000000e+00   -6.00332546e-02  -6.00332546e-02  2.35766205e-01   2.66778955e-02   7.71286980e-01   -6.00332546e-02  -6.00332546e-02  -6.00332546e-02  
20      1.04857500e-04   0.00000000e+00   -6.00332546e-02  -6.00332546e-02  2.35766205e-01   2.66778955e-02   7.71286980e-01   -6.00332546e-02  -6.00332546e-02  -6.00332546e-02  
21      2.09715100e-04   0.00000000e+00   -6.00332546e-02  -6.00332546e-02  2.35766205e-01   2.66778955e-02   7.71286980e-01   -6.00332546e-02  -6.00332546e-02  -6.00332546e-02  
22      4.19430300e-04   0.00000000e+00   -6.00332546e-02  -6.00332546e-02  2.35766205e-01   2.66778955e-02   7.71286980e-01   -6.00332546e-02  -6.00332546e-02  -6.00332546e-02  
23      8.38860700e-04   0.00000000e+00   -6.00332546e-02  -6.00332546e-02  2.35766205e-01   2.66778955e-02   7.71286980e-01   -6.00332546e-02  -6.00332546e-02  -6.00332546e-02  
24      1.00000000e-03   0.00000000e+00   -6.00332546e-02  -6.00332546e-02  2.35766205e-01   2.66778955e-02   7.71286980e-01   -6.00332546e-02  -6.00332546e-02  -6.00332546e-02  
25      1.00000625e-03   2.50000000e-10   -3.45678421e-02  -6.00332546e-02  2.35766205e-01   2.66778955e-02   7.71286980e-01   -6.00332546e-02  -6.00332546e-02  -6.00332546e-02  
26      1.00001875e-03   7.50000000e-10   1.63629831e-02   -6.00332544e-02  2.35766205e-01   2.66778955e-02   7.71286980e-01   -6.00332546e-02  -6.00332546e-02  -6.00332546e-02  
27      1.00004375e-03   1.75000000e-09   1.18239552e-01   -6.00332534e-02  2.35766205e-01   2.66778955e-02   7.71286980e-01   -6.00332546e-02  -6.00332546e-02  -6.00332546e-02  
28      1.00009375e-03   3.75000000e-09   3.21987719e-01   -6.00332448e-02  2.35766205e-01   2.66778955e-02   7.71286980e-01   -6.00332546e-02  -6.00332546e-02  -6.00332546e-02  
29      1.00019375e-03   7.75000000e-09   7.29638179e-01   -6.00331722e-02  2.35766205e-01   2.66778956e-02   7.71286980e-01   -6.00332546e-02  -6.00332546e-02  -6.00332546e-02  
30      1.00039375e-03   1.57500000e-08   1.54552029e+00   -6.00325733e-02  2.35766205e-01   2.66778970e-02   7.71286979e-01   -6.00332546e-02  -6.00332546e-02  -6.00332546e-02  
31      1.00079375e-03   3.17500000e-08   3.17896637e+00   -6.00277057e-02  2.35766208e-01   2.66779203e-02   7.71286975e-01   -6.00332546e-02  -6.00332546e-02  -6.00332546e-02  
32      1.00100000e-03   4.00000000e-08   4.02231828e+00   -6.00225003e-02  2.35766212e-01   2.66779516e-02   7.71286970e-01   -6.00332546e-02  -6.00332546e-02  -6.00332546e-02  
33      1.00108000e-03   4.00000000e-08   4.02355033e+00   -6.00196288e-02  2.35766214e-01   2.66779719e-02   7.71286967e-01   -6.00332546e-02  -6.00332546e-02  -6.00332546e-02  
34      1.00124000e-03   4.00000000e-08   4.02609085e+00   -6.00123090e-02  2.35766222e-01   2.66780343e-02   7.71286956e-01   -6.00332546e-02  -6.00332546e-02  -6.00332546e-02  
35      1.00156000e-03   4.00000000e-08   4.03116059e+00   -5.99945219e-02  2.35766245e-01   2.66782122e-02   7.71286926e-01   -6.00332546e-02  -6.00332546e-02  -6.00332546e-02  
36      1.00220000e-03   4.00000000e-08   4.04128967e+00   -5.99401390e-02  2.35766345e-01   2.66789976e-02   7.71286794e-01   -6.00332546e-02  -6.00332546e-02  -6.00332546e-02  
37      1.00348000e-03   4.00000000e-08   4.06145423e+00   -5.97568875e-02  2.35766909e-01   2.66833944e-02   7.71286051e-01   -6.00332546e-02  -6.00332546e-02  -6.00332546e-02  
38      1.00604000e-03   4.00000000e-08   4.10146561e+00   -5.90983362e-02  2.35770646e-01   2.67122117e-02   7.71281115e-01   -6.00332546e-02  -6.00332546e-02  -6.00332546e-02  
39      1.01116000e-03   4.00000000e-08   4.18018760e+00   -5.66587100e-02  2.35798355e-01   2.69193858e-02   7.71244058e-01   -6.00332546e-02  -6.00332546e-02  -6.00332546e-02  
40      1.02140000e-03   4.00000000e-08   4.33118498e+00   -4.76619799e-02  2.36033911e-01   2.85836898e-02   7.70893129e-01   -6.00332546e-02  -6.00332546e-02  -6.00332546e-02  
41      1.03164000e-03   4.00000000e-08   4.45917808e+00   -3.40163086e-02  2.36736010e-01   3.35915284e-02   7.69542244e-01   -6.00332546e-02  -6.00332546e-02  -6.00332546e-02  
42      1.05212000e-03   4.00000000e-08   4.52603971e+00   -2.57798544e-03  2.40895792e-01   6.82325566e-02   7.60440857e-01   -6.00332546e-02  -6.00332546e-02  -6.00332546e-02  
43      1.07013108e-03   4.00000000e-08   4.43087243e+00   2.03256631e-02   2.47936298e-01   1.31330711e-01   7.47645892e-01   -6.00332546e-02  -6.00332546e-02  -6.00332546e-02  
44      1.08814216e-03   4.00000000e-08   4.35201186e+00   3.47194087e-02   2.57413189e-01   2.15714488e-01   7.34399001e-01   -6.00332546e-02  -6.00332546e-02  -6.00332546e-02  
45      1.10615324e-03   4.00000000e-08   4.32169303e+00   4.38861057e-02   2.68338896e-01   3.06740592e-01   7.21317632e-01   -6.00332546e-02  -6.00332546e-02  -6.00332546e-02  
46      1.12416432e-03   4.00000000e-08   4.31224109e+00   5.05860581e-02   2.80140038e-01   3.95946153e-01   7.08454586e-01   -6.00332546e-02  -6.00332546e-02  -6.00332546e-02  
47      1.16018648e-03   4.00000000e-08   4.30652883e+00   5.88473827e-02   3.05040329e-01   5.53753592e-01   6.83399175e-01   -6.00332543e-02  -6.00332546e-02  -6.00332546e-02  
48      1.19620864e-03   4.00000000e-08   4.30690691e+00   6.10044680e-02   3.30332099e-01   6.77102734e-01   6.59225100e-01   -6.00332526e-02  -6.00332546e-02  -6.00332546e-02  
49      1.26825296e-03   4.00000000e-08   4.30743734e+00   5.81947182e-02   3.77974026e-01   8.34183817e-01   6.13398983e-01   -6.00332190e-02  -6.00332546e-02  -6.00332546e-02  
50      1.34029728e-03   4.00000000e-08   4.30745919e+00   5.58612750e-02   4.20975999e-01   9.12776528e-01   5.70763222e-01   -6.00330471e-02  -6.00332546e-02  -6.00332546e-02  
51      1.41234161e-03   4.00000000e-08   4.30638679e+00   5.54909522e-02   4.60302026e-01   9.53264472e-01   5.31094381e-01   -6.00324659e-02  -6.00332546e-02  -6.00332546e-02  
52      1.55643025e-03   4.00000000e-08   4.30280760e+00   5.42600987e-02   5.30247754e-01   9.87867759e-01   4.59756541e-01   -6.00269665e-02  -6.00332546e-02  -6.00332546e-02  
53      1.70051889e-03   4.00000000e-08   4.30018989e+00   5.17586529e-02   5.89438737e-01   9.96031815e-01   3.98012931e-01   -6.00084956e-02  -6.00332546e-02  -6.00332546e-02  
54      1.84460753e-03   4.00000000e-08   4.29959031e+00   4.80173768e-02   6.38911870e-01   9.97811805e-01   3.44580040e-01   -5.99630396e-02  -6.00332546e-02  -6.00332546e-02  
55      1.98869617e-03   4.00000000e-08   4.30108768e+00   4.37082180e-02   6.79876967e-01   9.97920124e-01   2.98348161e-01   -5.98694782e-02  -6.00332546e-02  -6.00332546e-02  
56      2.00100000e-03   4.00000000e-08   4.30123526e+00   4.33012798e-02   6.83014103e-01   9.97894462e-01   2.94708369e-01   -5.98586150e-02  -6.00332546e-02  -6.00332546e-02  
57      2.00104600e-03   3.81598179e-08   4.11380021e+00   4.32997534e-02   6.83025733e-01   9.97894360e-01   2.94694844e-01   -5.98585733e-02  -6.00332546e-02  -6.00332546e-02  
58      2.00108532e-03   3.65873745e-08   3.95360446e+00   4.32984409e-02   6.83035671e-01   9.97894272e-01   2.94683288e-01   -5.98585377e-02  -6.00332546e-02  -6.00332546e-02  
59      2.00116394e-03   3.34424877e-08   3.63306627e+00   4.32957923e-02   6.83055545e-01   9.97894096e-01   2.94660176e-01   -5.98584665e-02  -6.00332546e-02  -6.00332546e-02  
60      2.00132118e-03   2.71527141e-08   2.99203949e+00   4.32902643e-02   6.83095287e-01   9.97893745e-01   2.94613958e-01   -5.98583239e-02  -6.00332546e-02  -6.00332546e-02  
61      2.00163567e-03   1.45731669e-08   1.70848262e+00   4.32774176e-02   6.83174743e-01   9.97893039e-01   2.94521544e-01   -5.98580384e-02  -6.00332546e-02  -6.00332546e-02  
62      2.00200000e-03   -1.39826611e-20  2.18776405e-01   4.32576793e-02   6.83266743e-01   9.97892217e-01   2.94414521e-01   -5.98577073e-02  -6.00332546e-02  -6.00332546e-02  
63      2.00206290e-03   0.00000000e+00   2.18161887e-01   4.32534883e-02   6.83282619e-01   9.97892074e-01   2.94396049e-01   -5.98576500e-02  -6.00332546e-02  -6.00332546e-02  
64      2.00218869e-03   0.00000000e+00   2.16237165e-01   4.32442005e-02   6.83314364e-01   9.97891788e-01   2.94359109e-01   -5.98575355e-02  -6.00332546e-02  -6.00332546e-02  
65      2.00244028e-03   0.00000000e+00   2.12485620e-01   4.32238404e-02   6.83377837e-01   9.97891212e-01   2.94285240e-01   -5.98573064e-02  -6.00332546e-02  -6.00332546e-02  
66      2.00294347e-03   0.00000000e+00   2.04949314e-01   4.31727350e-02   6.83504678e-01   9.97890042e-01   2.94137559e-01   -5.98568473e-02  -6.00332546e-02  -6.00332546e-02  
67      2.00394983e-03   0.00000000e+00   1.91213490e-01   4.30320551e-02   6.83757848e-01   9.97887601e-01   2.93842425e-01   -5.98559263e-02  -6.00332546e-02  -6.00332546e-02  
68      2.00596256e-03   0.00000000e+00   1.65585967e-01   4.26190202e-02   6.84261560e-01   9.97882103e-01   2.93253075e-01   -5.98540726e-02  -6.00332546e-02  -6.00332546e-02  
69      2.00998801e-03   0.00000000e+00   1.24336995e-01   4.14117589e-02   6.85254944e-01   9.97867334e-01   2.92078112e-01   -5.98503181e-02  -6.00332546e-02  -6.00332546e-02  
70      2.01401347e-03   0.00000000e+00   9.25045097e-02   3.98812824e-02   6.86225688e-01   9.97845887e-01   2.90908205e-01   -5.98465000e-02  -6.00332546e-02  -6.00332546e-02  
71      2.02206438e-03   0.00000000e+00   4.99275186e-02   3.65538201e-02   6.88089520e-01   9.97776956e-01   2.88583910e-01   -5.98386695e-02  -6.00332546e-02  -6.00332546e-02  
72      2.03816620e-03   0.00000000e+00   8.95521871e-03   3.06567615e-02   6.91524883e-01   9.97524557e-01   2.83998588e-01   -5.98222042e-02  -6.00332546e-02  -6.00332546e-02  
73      2.07036984e-03   0.00000000e+00   -9.84049585e-03  2.38429945e-02   6.97571734e-01   9.96651063e-01   2.75078141e-01   -5.97858273e-02  -6.00332546e-02  -6.00332546e-02  
74      2.10257348e-03   0.00000000e+00   -1.10446510e-02  2.12474117e-02   7.02963765e-01   9.95516021e-01   2.66472982e-01   -5.97444627e-02  -6.00332546e-02  -6.00332546e-02  
75      2.13477712e-03   0.00000000e+00   -1.22635976e-02  1.97160831e-02   7.08012133e-01   9.94332102e-01   2.58159033e-01   -5.96975391e-02  -6.00332546e-02  -6.00332546e-02  
76      2.16698076e-03   0.00000000e+00   -1.39900823e-02  1.82887287e-02   7.12792192e-01   9.93142469e-01   2.50123229e-01   -5.96444157e-02  -6.00332546e-02  -6.00332546e-02  
77      2.23138804e-03   0.00000000e+00   -1.66002971e-02  1.54443788e-02   7.21607544e-01   9.90672934e-01   2.34852076e-01   -5.95161011e-02  -6.00332546e-02  -6.00332546e-02  
78      2.29579532e-03   0.00000000e+00   -1.98311085e-02  1.25704168e-02   7.29478843e-01   9.87964800e-01   2.20609286e-01   -5.93527692e-02  -6.00332546e-02  -6.00332546e-02  
79      2.36020261e-03   0.00000000e+00   -2.26178940e-02  9.66189677e-03   7.36462511e-01   9.84860163e-01   2.07348665e-01   -5.91454122e-02  -6.00332546e-02  -6.00332546e-02  
80      2.42460989e-03   0.00000000e+00   -2.61554204e-02  6.71751582e-03   7.42608058e-01   9.81195630e-01   1.95031391e-01   -5.88826163e-02  -6.00332546e-02  -6.00332546e-02  
81      2.48901717e-03   0.00000000e+00   -2.94283165e-02  3.73031523e-03   7.47958541e-01   9.76787858e-01   1.83626684e-01   -5.85499428e-02  -6.00332546e-02  -6.00332546e-02  
82      2.55342445e-03   0.00000000e+00   -3.36857934e-02  6.87522676e-04   7.52550083e-01   9.71416767e-01   1.73113004e-01   -5.81289440e-02  -6.00332546e-02  -6.00332546e-02  
83      2.61783173e-03   0.00000000e+00   -3.79747753e-02  -2.43108234e-03  7.56411271e-01   9.64804723e-01   1.63479813e-01   -5.75961766e-02  -6.00332546e-02  -6.00332546e-02  
84      2.68223901e-03   0.00000000e+00   -4.35656696e-02  -5.65256847e-03  7.59562512e-01   9.56588741e-01   1.54729972e-01   -5.69223642e-02  -6.00332546e-02  -6.00332546e-02  
85      2.74664629e-03   0.00000000e+00   -4.93448371e-02  -9.00257526e-03  7.62016261e-01   9.46287599e-01   1.46881980e-01   -5.60702870e-02  -6.00332546e-02  -6.00332546e-02  
86      2.81105358e-03   0.00000000e+00   -5.59979365e-02  -1.24816673e-02  7.63780171e-01   9.33281264e-01   1.39968808e-01   -5.49914549e-02  -6.00332546e-02  -6.00332546e-02  
87      2.87546086e-03   0.00000000e+00   -6.13403954e-02  -1.60369518e-02  7.64864747e-01   9.16840311e-01   1.34027582e-01   -5.36255819e-02  -6.00332546e-02  -6.00332546e-02  
88      2.93986814e-03   0.00000000e+00   -6.55188196e-02  -1.95815206e-02  7.65291327e-01   8.96213910e-01   1.29080411e-01   -5.19000411e-02  -6.00332546e-02  -6.00332546e-02  
89      3.00427542e-03   0.00000000e+00   -6.72634727e-02  -2.30797259e-02  7.65090305e-01   8.70678161e-01   1.25122494e-01   -4.97179249e-02  -6.00332546e-02  -6.00332546e-02  
90      3.06868270e-03   0.00000000e+00   -6.84937594e-02  -2.66021157e-02  7.64287439e-01   8.39420868e-01   1.22132154e-01   -4.69493245e-02  -6.00332546e-02  -6.00332546e-02  
91      3.13308998e-03   0.00000000e+00   -6.86588702e-02  -3.02851637e-02  7.62890277e-01   8.01308495e-01   1.20090799e-01   -4.34524451e-02  -6.00332546e-02  -6.00332546e-02  
92      3.19749726e-03   0.00000000e+00   -6.94044507e-02  -3.42715179e-02  7.60884757e-01   7.54697586e-01   1.18992896e-01   -3.90648678e-02  -6.00332546e-02  -6.00332546e-02  
93      3.26190455e-03   0.00000000e+00   -6.95434542e-02  -3.86865056e-02  7.58239954e-01   6.97381572e-01   1.18846906e-01   -3.35172421e-02  -6.00332546e-02  -6.00332546e-02  
94      3.32631183e-03   0.00000000e+00   -7.04390565e-02  -4.36101996e-02  7.54917446e-01   6.26800493e-01   1.19679806e-01   -2.64880359e-02  -6.00332546e-02  -6.00332546e-02  
95      3.39071911e-03   0.00000000e+00   -7.08015021e-02  -4.89948903e-02  7.50887759e-01   5.40965890e-01   1.21550196e-01   -1.78428557e-02  -6.00332546e-02  -6.00332546e-02  
96      3.45512639e-03   0.00000000e+00   -7.19302157e-02  -5.45345556e-02  7.46156171e-01   4.40803635e-01   1.24555112e-01   -7.40511276e-03  -6.00332546e-02  -6.00332546e-02  
97      3.51953367e-03   0.00000000e+00   -7.24381451e-02  -5.96331701e-02  7.40788740e-01   3.33379469e-01   1.28789892e-01   5.38364397e-03   -6.00332546e-02  -6.00332546e-02  
98      3.58394095e-03   0.00000000e+00   -7.35509364e-02  -6.36890488e-02  7.34915355e-01   2.31961149e-01   1.34248218e-01   1.97957884e-02   -6.00332546e-02  -6.00332546e-02  
99      3.64834824e-03   0.00000000e+00   -7.38459097e-02  -6.65305914e-02  7.28694973e-01   1.49448013e-01   1.40761020e-01   3.19659374e-02   -6.00332546e-02  -6.00332546e-02  
100     3.71275552e-03   0.00000000e+00   -7.46288020e-02  -6.84681802e-02  7.22264015e-01   9.09277109e-02   1.48075440e-01   3.86820119e-02   -6.00332546e-02  -6.00332546e-02  
101     3.77716280e-03   0.00000000e+00   -7.46367694e-02  -6.99284915e-02  7.15708343e-01   5.35019233e-02   1.55987193e-01   4.12682560e-02   -6.00332546e-02  -6.00332546e-02  
102     3.84157008e-03   0.00000000e+00   -7.52143689e-02  -7.11604058e-02  7.09071698e-01   3.11749534e-02   1.64382005e-01   4.22769323e-02   -6.00332546e-02  -6.00332546e-02  
103     3.90597736e-03   0.00000000e+00   -7.51114307e-02  -7.22160847e-02  7.02379323e-01   1.84898672e-02   1.73189737e-01   4.25331374e-02   -6.00332546e-02  -6.00332546e-02  
104     3.97038464e-03   0.00000000e+00   -7.56179318e-02  -7.30684866e-02  6.95654324e-01   1.15544320e-02   1.82334683e-01   4.20544825e-02   -6.00332546e-02  -6.00332546e-02  
105     4.03479192e-03   0.00000000e+00   -7.54501804e-02  -7.37143853e-02  6.88920887e-01   7.87281470e-03   1.91725520e-01   4.09223165e-02   -6.00332546e-02  -6.00332546e-02  
106     4.09919921e-03   0.00000000e+00   -7.58859434e-02  -7.41965316e-02  6.82200390e-01   5.94797231e-03   2.01274160e-01   3.93591416e-02   -6.00332546e-02  -6.00332546e-02  
107     4.16360649e-03   0.00000000e+00   -7.56538770e-02  -7.45689058e-02  6.75508328e-01   4.93421756e-03   2.10912736e-01   3.75137128e-02   -6.00332546e-02  -6.00332546e-02  
108     4.22801377e-03   0.00000000e+00   -7.60385853e-02  -7.48660786e-02  6.68854948e-01   4.38082539e-03   2.20593976e-01   3.54260287e-02   -6.00332546e-02  -6.00332546e-02  
109     4.29242105e-03   0.00000000e+00   -7.57700663e-02  -7.51019675e-02  6.62247587e-01   4.06013751e-03   2.30282419e-01   3.31185305e-02   -6.00332546e-02  -6.00332546e-02  
