Index       TIME              V(A)             I(IIN)             V(B)        N(YNEURON!NEURON1_M) N(YNEURON!NEURON1_H) N(YNEURON!NEURON1_N)
0        0.00000000e+00   -8.84927928e-04    0.00000000e+00    0.00000000e+00    1.26940056e-02    8.89049999e-01    1.64184705e-01
1        1.00000000e-10   -8.84927928e-04    0.00000000e+00    0.00000000e+00    1.26940056e-02    8.89049999e-01    1.64184705e-01
2        3.00000000e-10   -8.84927928e-04    0.00000000e+00    0.00000000e+00    1.26940056e-02    8.89049999e-01    1.64184705e-01
3        7.00000000e-10   -8.84927928e-04    0.00000000e+00    0.00000000e+00    1.26940056e-02    8.89049999e-01    1.64184705e-01
4        1.50000000e-09   -8.84927928e-04    0.00000000e+00    0.00000000e+00    1.26940056e-02    8.89049999e-01    1.64184705e-01
5        3.10000000e-09   -8.84927928e-04    0.00000000e+00    0.00000000e+00    1.26940056e-02    8.89049999e-01    1.64184705e-01
6        6.30000000e-09   -8.84927928e-04    0.00000000e+00    0.00000000e+00    1.26940056e-02    8.89049999e-01    1.64184705e-01
7        1.27000000e-08   -8.84927928e-04    0.00000000e+00    0.00000000e+00    1.26940056e-02    8.89049999e-01    1.64184705e-01
8        2.55000000e-08   -8.84927928e-04    0.00000000e+00    0.00000000e+00    1.26940056e-02    8.89049999e-01    1.64184705e-01
9        5.11000000e-08   -8.84927928e-04    0.00000000e+00    0.00000000e+00    1.26940056e-02    8.89049999e-01    1.64184705e-01
10       1.02300000e-07   -8.84927928e-04    0.00000000e+00    4.70197740e-36    1.26940056e-02    8.89049999e-01    1.64184705e-01
11       2.04700000e-07   -8.84927928e-04    0.00000000e+00   -4.70197740e-36    1.26940056e-02    8.89049999e-01    1.64184705e-01
12       4.09500000e-07   -8.84927928e-04    0.00000000e+00    4.70197740e-36    1.26940056e-02    8.89049999e-01    1.64184705e-01
13       8.19100000e-07   -8.84927928e-04    0.00000000e+00   -4.66524320e-36    1.26940056e-02    8.89049999e-01    1.64184705e-01
14       1.63830000e-06   -8.84927928e-04    0.00000000e+00    4.88564840e-36    1.26940056e-02    8.89049999e-01    1.64184705e-01
15       3.27670000e-06   -8.84927928e-04    0.00000000e+00   -5.25299038e-36    1.26940056e-02    8.89049999e-01    1.64184705e-01
16       6.55350000e-06   -8.84927928e-04    0.00000000e+00    4.15096443e-36    1.26940056e-02    8.89049999e-01    1.64184705e-01
17       1.31071000e-05   -8.84927928e-04    0.00000000e+00   -4.66524320e-36    1.26940056e-02    8.89049999e-01    1.64184705e-01
18       2.62143000e-05   -8.84927928e-04    0.00000000e+00    4.73871160e-36    1.26940056e-02    8.89049999e-01    1.64184705e-01
19       5.24287000e-05   -8.84927928e-04    0.00000000e+00   -4.66524320e-36    1.26940056e-02    8.89049999e-01    1.64184705e-01
20       1.04857500e-04   -8.84927928e-04    0.00000000e+00    4.73871160e-36    1.26940056e-02    8.89049999e-01    1.64184705e-01
21       2.09715100e-04   -8.84927928e-04    0.00000000e+00   -4.66524320e-36    1.26940056e-02    8.89049999e-01    1.64184705e-01
22       4.19430300e-04   -8.84927928e-04    0.00000000e+00    4.73871160e-36    1.26940056e-02    8.89049999e-01    1.64184705e-01
23       8.38860700e-04   -8.84927928e-04    0.00000000e+00   -4.66524320e-36    1.26940056e-02    8.89049999e-01    1.64184705e-01
24       1.00000000e-03   -8.84927928e-04    0.00000000e+00    4.92129515e-36    1.26940056e-02    8.89049999e-01    1.64184705e-01
25       1.01000000e-03   -8.70822479e-04    4.00000000e-11    4.00000000e-09    1.26956537e-02    8.89049710e-01    1.64184969e-01
26       1.03000000e-03   -7.86569907e-04    1.20000000e-10    1.20000000e-08    1.27169234e-02    8.89045683e-01    1.64188654e-01
27       1.07000000e-03   -5.06703159e-04    2.80000000e-10    2.80000000e-08    1.28154071e-02    8.89026085e-01    1.64206576e-01
28       1.10000000e-03   -1.51346750e-04    4.00000000e-10    4.00000000e-08    1.29808817e-02    8.88991578e-01    1.64238107e-01
29       1.10800000e-03   -4.03595826e-05    4.00000000e-10    4.00000000e-08    1.30458641e-02    8.88977527e-01    1.64250937e-01
30       1.12400000e-03    1.80473219e-04    4.00000000e-10    4.00000000e-08    1.32032788e-02    8.88941911e-01    1.64283432e-01
31       1.15600000e-03    6.19871767e-04    4.00000000e-10    4.00000000e-08    1.35686608e-02    8.88855495e-01    1.64362187e-01
32       1.22000000e-03    1.48525269e-03    4.00000000e-10    4.00000000e-08    1.45573881e-02    8.88590653e-01    1.64602633e-01
33       1.34800000e-03    3.16421063e-03    4.00000000e-10    4.00000000e-08    1.72858036e-02    8.87682498e-01    1.65418387e-01
34       1.60400000e-03    6.33175322e-03    4.00000000e-10    4.00000000e-08    2.49214908e-02    8.84246761e-01    1.68409598e-01
35       1.86000000e-03    9.28254858e-03    4.00000000e-10    4.00000000e-08    3.51757430e-02    8.78442423e-01    1.73238624e-01
36       2.10000000e-03    1.19203785e-02    4.00000000e-10    4.00000000e-08    4.73943525e-02    8.70540746e-01    1.79467189e-01
37       2.11000000e-03    1.20144945e-02    3.60000000e-10    3.60000000e-08    4.79624267e-02    8.70154089e-01    1.79763905e-01
38       2.12000000e-03    1.20945428e-02    3.20000000e-10    3.20000000e-08    4.85288992e-02    8.69763977e-01    1.80062655e-01
39       2.14000000e-03    1.22266190e-02    2.40000000e-10    2.40000000e-08    4.96522571e-02    8.68978175e-01    1.80663325e-01
40       2.18000000e-03    1.23238028e-02    8.00000000e-11    8.00000000e-09    5.17663507e-02    8.67389546e-01    1.81872830e-01
41       2.20000000e-03    1.22894507e-02   -1.55096365e-25   -1.71639977e-23    5.27203712e-02    8.66594966e-01    1.82476249e-01
42       2.20800000e-03    1.22649940e-02    0.00000000e+00   -3.61891518e-25    5.30673906e-02    8.66279476e-01    1.82715724e-01
43       2.21600000e-03    1.22408016e-02    0.00000000e+00   -3.61891518e-25    5.33988616e-02    8.65965249e-01    1.82954214e-01
44       2.23200000e-03    1.21929302e-02    0.00000000e+00   -3.61891518e-25    5.40316929e-02    8.65339290e-01    1.83429242e-01
45       2.26400000e-03    1.21000547e-02    0.00000000e+00   -3.61891518e-25    5.51280785e-02    8.64102047e-01    1.84367786e-01
46       2.32800000e-03    1.19237410e-02    0.00000000e+00   -3.61891518e-25    5.67444975e-02    8.61683635e-01    1.86200598e-01
47       2.45600000e-03    1.15949402e-02    0.00000000e+00   -3.61891518e-25    5.82868991e-02    8.57055827e-01    1.89699623e-01
48       2.58400000e-03    1.12802819e-02    0.00000000e+00   -3.61891518e-25    5.82966297e-02    8.52690313e-01    1.92988126e-01
49       2.84000000e-03    1.06347803e-02    0.00000000e+00   -3.61891518e-25    5.61068573e-02    8.44703011e-01    1.98966691e-01
50       3.09600000e-03    9.93995808e-03    0.00000000e+00   -3.61891518e-25    5.24632722e-02    8.37689668e-01    2.04164245e-01
51       3.35200000e-03    9.19267893e-03    0.00000000e+00   -3.61891518e-25    4.83498139e-02    8.31636680e-01    2.08595753e-01
52       3.86400000e-03    7.62405969e-03    0.00000000e+00   -3.61891518e-25    4.01591848e-02    8.22263168e-01    2.15286567e-01
53       4.37600000e-03    6.07163605e-03    0.00000000e+00   -3.61891518e-25    3.29637814e-02    8.16196001e-01    2.19353667e-01
54       4.88800000e-03    4.64901151e-03    0.00000000e+00   -3.61891518e-25    2.73047463e-02    8.12889782e-01    2.21241863e-01
55       5.40000000e-03    3.41131580e-03    0.00000000e+00   -3.61891518e-25    2.30961603e-02    8.11772372e-01    2.21425587e-01
56       5.91200000e-03    2.37057009e-03    0.00000000e+00    9.30578189e-25    2.00342595e-02    8.12325969e-01    2.20338124e-01
57       6.42400000e-03    1.51551126e-03    0.00000000e+00   -3.61891518e-25    1.78135566e-02    8.14114686e-01    2.18342730e-01
58       7.44800000e-03    2.63933091e-04    0.00000000e+00    9.30578189e-25    1.49792149e-02    8.19952699e-01    2.12804670e-01
59       9.44800000e-03   -9.96755012e-04    0.00000000e+00   -7.81723292e-25    1.25786219e-02    8.34707370e-01    2.00187569e-01
60       1.14480000e-02   -1.36570607e-03    0.00000000e+00    7.19400125e-25    1.19439476e-02    8.49207811e-01    1.88646696e-01
61       1.34480000e-02   -1.38509026e-03    0.00000000e+00   -7.36797663e-25    1.18904522e-02    8.60871096e-01    1.79891981e-01
62       1.54480000e-02   -1.29258041e-03    0.00000000e+00    7.30818886e-25    1.20325441e-02    8.69495375e-01    1.73829731e-01
63       1.74480000e-02   -1.18284078e-03    0.00000000e+00   -7.21937496e-25    1.22024034e-02    8.75603109e-01    1.69870195e-01
64       1.94480000e-02   -1.08875775e-03    0.00000000e+00    7.27204917e-25    1.23562652e-02    8.79824781e-01    1.67398087e-01
65       2.00000000e-02   -1.06690073e-03    0.00000000e+00   -7.21203655e-25    1.23906377e-02    8.80724108e-01    1.66915931e-01
End of Xyce(TM) Simulation
